# Energy [GeV] | Avg. Exp. Per Day (cm^2 s)
2.511900000000000000e+07 0.000000000000000000e+00
3.162300000000000000e+07 0.000000000000000000e+00
3.981100000000000000e+07 2.682500000000000000e+10
5.011900000000000000e+07 7.517500000000000000e+10
6.309600000000000000e+07 1.055500000000000000e+11
7.943300000000000000e+07 1.982300000000000000e+11
1.000000000000000000e+08 3.895200000000000000e+11
1.258900000000000000e+08 5.411600000000000000e+11
1.584900000000000000e+08 1.045300000000000000e+12
1.995300000000000000e+08 1.543400000000000000e+12
2.511900000000000000e+08 2.385700000000000000e+12
3.162300000000000000e+08 3.717000000000000000e+12
3.981100000000000000e+08 4.611400000000000000e+12
5.011900000000000000e+08 6.293300000000000000e+12
6.309600000000000000e+08 7.901000000000000000e+12
7.943300000000000000e+08 9.760000000000000000e+12
1.000000000000000000e+09 1.226400000000000000e+13
1.258900000000000000e+09 1.366700000000000000e+13
1.584900000000000000e+09 1.571100000000000000e+13
1.995300000000000000e+09 1.839200000000000000e+13
2.511900000000000000e+09 2.142300000000000000e+13
3.162300000000000000e+09 2.438900000000000000e+13
3.981100000000000000e+09 2.614000000000000000e+13
5.011900000000000000e+09 2.837000000000000000e+13
6.309600000000000000e+09 3.101700000000000000e+13
7.943300000000000000e+09 3.371600000000000000e+13
1.000000000000000000e+10 3.640900000000000000e+13
1.258900000000000000e+10 3.811700000000000000e+13
1.584900000000000000e+10 3.989300000000000000e+13
1.995300000000000000e+10 4.191700000000000000e+13
2.511900000000000000e+10 4.378600000000000000e+13
3.162300000000000000e+10 4.607600000000000000e+13
3.981100000000000000e+10 4.760300000000000000e+13
5.011900000000000000e+10 4.893200000000000000e+13
6.309600000000000000e+10 5.066800000000000000e+13
7.943300000000000000e+10 5.180000000000000000e+13
1.000000000000000000e+11 5.360000000000000000e+13
1.258900000000000000e+11 5.488600000000000000e+13
1.584900000000000000e+11 5.663700000000000000e+13
1.995300000000000000e+11 5.808700000000000000e+13
2.511900000000000000e+11 5.915200000000000000e+13
